# Arquivo Coleta1.txt 
#Coluna 1 > Ponto de coleta
#Coluna 2 > Ocupação
#Coluna 3 > E(n)
#Coluna 4 > E(w)
#Coluna 5 > lambda
#Coluna 6 > Erro de Little
100 74.93392 2.51019 1.31424 1.91000 -0.00000000000000754952
200 155.25488 2.73870 1.45676 1.88000 -0.00000000000020783375
300 225.24757 2.85950 1.53461 1.86333 0.00000000000005906386
400 313.99906 3.39926 1.77739 1.91250 -0.00000000000012834178
500 384.70506 3.16522 1.64342 1.92600 0.00000000000034239278
600 468.62450 3.29393 1.69499 1.94333 0.00000000000023270275
700 557.65929 3.53142 1.79651 1.96571 0.00000000000069766415
800 643.04277 3.54840 1.79894 1.97250 -0.00000000000015143442
900 723.65635 3.47631 1.76462 1.97000 -0.00000000000072075679
1000 811.01190 3.91218 1.98186 1.97400 -0.00000000000094146912
1100 897.22117 3.91302 1.98630 1.97000 0.00000000000076383344
1200 984.26641 4.07610 2.06559 1.97333 -0.00000000000021938007
1300 1084.14719 5.08961 2.54676 1.99846 -0.00000000000099653619
1400 1176.90052 5.28878 2.63592 2.00643 -0.00000000000142019729
1500 1267.75667 5.23125 2.61127 2.00333 -0.00000000000342570416
1600 1358.52270 5.25338 2.62014 2.00500 -0.00000000000162536651
1700 1459.74206 5.80960 2.87270 2.02235 -0.00000000000037658765
1800 1555.15638 5.99255 2.96417 2.02167 -0.00000000000021938007
1900 1642.47838 5.95224 2.94052 2.02421 -0.00000000000082511775
2000 1733.63865 6.06008 2.97793 2.03500 -0.00000000000032684966
2100 1827.78951 6.18536 3.04269 2.03286 0.00000000000233590924
2200 1920.22978 6.43653 3.16433 2.03409 -0.00000000000054534155
2300 2006.03356 6.30087 3.11054 2.02565 0.00000000000204813944
2400 2101.68155 6.38371 3.14275 2.03125 0.00000000000028332892
2500 2188.80377 6.37693 3.13455 2.03440 0.00000000000213962181
2600 2273.92704 6.26124 3.07852 2.03385 -0.00000000000060218497
2700 2357.85257 6.16139 3.03351 2.03111 -0.00000000000218491891
2800 2432.41939 6.02153 2.97098 2.02679 0.00000000000031175063
2900 2504.39951 5.89327 2.90753 2.02690 -0.00000000000165734093
3000 2580.00408 5.81004 2.87721 2.01933 -0.00000000000059774408
3100 2656.46273 5.72874 2.83510 2.02065 -0.00000000000210231832
3200 2751.40530 5.93443 2.93058 2.02500 -0.00000000000207744932
3300 2831.09019 5.87335 2.91547 2.01455 -0.00000000000684785562
3400 2912.91245 5.81861 2.88976 2.01353 -0.00000000000989874849
3500 2988.26659 5.76077 2.86565 2.01029 -0.00000000001261302174
3600 3065.46487 5.69354 2.83771 2.00639 -0.00000000001284661266
3700 3159.24389 5.71256 2.83787 2.01297 -0.00000000001556088591
3800 3253.03686 5.74564 2.85516 2.01237 -0.00000000001391864402
3900 3316.89971 5.66216 2.82384 2.00513 -0.00000000001123812154
4000 3403.88898 5.62322 2.80670 2.00350 -0.00000000001431210706
4100 3498.48898 5.69969 2.84326 2.00463 -0.00000000001075139977
4200 3580.93684 5.69088 2.83262 2.00905 -0.00000000000664268640
4300 3652.40867 5.60247 2.79215 2.00651 -0.00000000000959055058
4400 3750.82222 5.80364 2.88673 2.01045 -0.00000000000977617987
4500 3836.51242 5.75287 2.86434 2.00844 -0.00000000000584421400
4600 3913.35509 5.67854 2.82851 2.00761 -0.00000000000512834220
4700 3996.17928 5.65733 2.82086 2.00553 -0.00000000001200906041
4800 4081.56194 5.66267 2.82398 2.00521 -0.00000000000746958051
4900 4171.56250 5.65001 2.81209 2.00918 -0.00000000000764099894
5000 4262.95372 5.69318 2.82624 2.01440 -0.00000000000549515988
5100 4357.53147 5.83641 2.89437 2.01647 0.00000000000394084765
5200 4439.48901 5.79281 2.87622 2.01404 0.00000000000025490721
5300 4523.44679 5.73931 2.85029 2.01358 0.00000000000067501560
5400 4613.29538 5.74790 2.85255 2.01500 -0.00000000000054622973
5500 4691.46011 5.68879 2.82488 2.01382 -0.00000000000071231909
5600 4781.51867 5.66661 2.81521 2.01286 -0.00000000000087929664
5700 4862.29423 5.67168 2.82173 2.01000 0.00000000000167421632
5800 4928.63478 5.62965 2.80515 2.00690 -0.00000000000326583205
5900 5022.99413 5.66474 2.82209 2.00729 0.00000000000733724193
6000 5116.05061 5.80275 2.88766 2.00950 -0.00000000000148681067
6100 5209.37585 5.86984 2.91628 2.01279 -0.00000000000744648787
6200 5296.37490 5.82980 2.89390 2.01452 -0.00000000000386002341
6300 5380.70500 5.85265 2.90924 2.01175 -0.00000000001155697760
6400 5467.13041 5.81938 2.89319 2.01141 -0.00000000000997424365
6500 5544.18445 5.76713 2.87032 2.00923 -0.00000000001262900895
6600 5636.72441 5.77075 2.87037 2.01045 -0.00000000001991296017
6700 5727.77387 5.80044 2.88515 2.01045 -0.00000000001873967648
6800 5807.10752 5.75495 2.86337 2.00985 -0.00000000001928945892
6900 5890.73105 5.73456 2.85137 2.01116 -0.00000000002834799062
7000 5985.72270 5.74385 2.85642 2.01086 -0.00000000003794831116
7100 6078.73645 5.81363 2.88830 2.01282 -0.00000000003693578776
7200 6156.58127 5.78068 2.87675 2.00944 -0.00000000004569589152
7300 6257.08437 5.87322 2.91782 2.01288 -0.00000000004837108492
7400 6336.94201 5.88632 2.92694 2.01108 -0.00000000005268585568
7500 6418.48784 5.86265 2.91423 2.01173 -0.00000000005440714546
7600 6504.18520 5.86382 2.91275 2.01316 -0.00000000004880984505
7700 6596.52977 5.90802 2.93382 2.01377 -0.00000000004392486375
7800 6691.59522 5.94586 2.94930 2.01603 -0.00000000005928857405
7900 6782.17101 5.93134 2.93833 2.01861 -0.00000000006046718681
8000 6856.53755 5.91533 2.93274 2.01700 -0.00000000005383427037
8100 6931.13887 5.87025 2.91104 2.01654 -0.00000000006000533403
8200 7028.72600 5.87143 2.90911 2.01829 -0.00000000007436717908
8300 7116.00669 5.85438 2.90288 2.01675 -0.00000000007543832226
8400 7183.04986 5.80021 2.88090 2.01333 -0.00000000008111200600
8500 7269.28955 5.77732 2.86908 2.01365 -0.00000000009885958718
8600 7357.59766 5.80648 2.88080 2.01558 -0.00000000009431122550
8700 7448.12072 5.89627 2.92544 2.01552 -0.00000000009492495678
8800 7520.50471 5.85860 2.90897 2.01398 -0.00000000008578560085
8900 7596.38220 5.82975 2.89697 2.01236 -0.00000000007579625816
9000 7685.67765 5.82560 2.89239 2.01411 -0.00000000009648637445
9100 7768.70563 5.79074 2.87343 2.01527 -0.00000000009415845881
9200 7863.83270 5.88536 2.91873 2.01641 -0.00000000008649081451
9300 7937.54367 5.87444 2.91902 2.01247 -0.00000000008045653033
9400 8023.88808 5.86587 2.91696 2.01096 -0.00000000008132783336
9500 8105.86772 5.83963 2.90529 2.01000 -0.00000000007692957382
9600 8174.66969 5.79664 2.88719 2.00771 -0.00000000006163958233
9700 8259.62759 5.77507 2.87893 2.00598 -0.00000000006775024985
9800 8346.03291 5.75772 2.87081 2.00561 -0.00000000006086331439
9900 8434.22572 5.73464 2.85492 2.00869 -0.00000000005655209634
10000 8515.08813 5.72029 2.85003 2.00710 -0.00000000006521272411
10100 8595.14728 5.69599 2.83998 2.00564 -0.00000000006714806489
10200 8671.71752 5.67013 2.83007 2.00353 -0.00000000006929656848
10300 8754.67563 5.64635 2.82085 2.00165 -0.00000000006728040347
10400 8830.07908 5.61538 2.80513 2.00183 -0.00000000008025935472
10500 8912.45201 5.60829 2.80161 2.00181 -0.00000000006894929072
10600 8984.98099 5.58864 2.79156 2.00198 -0.00000000008035527799
10700 9071.10946 5.56898 2.78072 2.00271 -0.00000000008954259556
10800 9152.08475 5.55312 2.77399 2.00185 -0.00000000009217870911
10900 9231.28400 5.53420 2.76659 2.00037 -0.00000000009471445850
11000 9310.28382 5.51235 2.75768 1.99891 -0.00000000009050715732
11100 9391.90018 5.49984 2.75103 1.99919 -0.00000000007708944594
11200 9482.43323 5.51796 2.75898 2.00000 -0.00000000006157563348
11300 9578.25096 5.51862 2.75846 2.00062 -0.00000000005400391245
11400 9663.45880 5.49802 2.74865 2.00026 -0.00000000005064570985
11500 9734.76840 5.48239 2.74298 1.99870 -0.00000000007217515474
11600 9831.60111 5.59215 2.79801 1.99862 -0.00000000006075584480
11700 9918.69924 5.59110 2.79926 1.99735 -0.00000000007265033020
11800 10009.75888 5.58983 2.79824 1.99763 -0.00000000006677680631
11900 10090.82114 5.56901 2.78556 1.99924 -0.00000000008828937581
12000 10165.92349 5.54236 2.77384 1.99808 -0.00000000007909495281
12100 10241.20911 5.51959 2.76379 1.99711 -0.00000000005740297127
12200 10323.12480 5.50707 2.76043 1.99500 -0.00000000005142553050
12300 10401.35287 5.48670 2.75084 1.99455 -0.00000000006845013445
12400 10487.35594 5.47596 2.74506 1.99484 -0.00000000005100719846
12500 10554.12989 5.44288 2.73193 1.99232 -0.00000000004208189353
12600 10635.41476 5.43144 2.72686 1.99183 -0.00000000003303135543
12700 10718.30110 5.41779 2.71960 1.99213 -0.00000000003894040645
12800 10810.11139 5.42690 2.72409 1.99219 -0.00000000004064126813
12900 10901.72571 5.46000 2.73956 1.99302 -0.00000000002991651371
13000 10980.28131 5.43621 2.72818 1.99262 -0.00000000002122302334
13100 11066.34407 5.43849 2.73071 1.99160 -0.00000000001313260611
13200 11148.76991 5.45220 2.73865 1.99083 -0.00000000001282174367
13300 11217.05951 5.42392 2.72600 1.98970 0.00000000001250910486
13400 11291.96879 5.40048 2.71371 1.99007 0.00000000003026467965
13500 11366.37846 5.37670 2.70206 1.98985 0.00000000002535927024
13600 11459.15512 5.38977 2.70792 1.99037 0.00000000001331734722
13700 11545.37284 5.37900 2.70133 1.99124 0.00000000002210587269
13800 11639.57391 5.38957 2.70399 1.99319 0.00000000002820854661
13900 11727.96606 5.39283 2.70507 1.99360 0.00000000002919264830
14000 11822.11902 5.43523 2.72511 1.99450 0.00000000003877165256
14100 11899.33428 5.41595 2.71500 1.99482 0.00000000003042099905
14200 11986.79967 5.40730 2.71263 1.99338 0.00000000002844480207
14300 12065.95920 5.39452 2.70834 1.99182 0.00000000001970512642
14400 12162.15815 5.45679 2.73742 1.99340 0.00000000003809930149
14500 12249.82405 5.49287 2.75594 1.99310 0.00000000004452971325
14600 12334.63113 5.48118 2.75067 1.99267 0.00000000005353317789
14700 12420.36267 5.48675 2.75321 1.99286 0.00000000003507238944
14800 12506.73994 5.47359 2.74738 1.99230 0.00000000005533262737
14900 12579.45362 5.45227 2.73993 1.98993 0.00000000006813039022
15000 12660.76667 5.43639 2.73240 1.98960 0.00000000005560796268
15100 12751.78966 5.44619 2.73660 1.99013 0.00000000005478018039
15200 12835.06344 5.43290 2.73127 1.98914 0.00000000006027178756
15300 12913.77871 5.42264 2.72629 1.98902 0.00000000004663469610
15400 12991.19454 5.40466 2.71804 1.98844 0.00000000003772271384
15500 13065.80902 5.38646 2.70834 1.98884 0.00000000002422506640
15600 13155.22094 5.38285 2.70661 1.98878 0.00000000003510169932
15700 13239.46829 5.39840 2.71337 1.98955 0.00000000005351807886
15800 13316.79093 5.38123 2.70629 1.98842 0.00000000006252776075
15900 13396.27713 5.37699 2.70594 1.98711 0.00000000007691181025
16000 13488.42195 5.38806 2.71157 1.98706 0.00000000006861089474
16100 13575.13251 5.40374 2.71978 1.98683 0.00000000007967226878
16200 13657.06473 5.41028 2.72431 1.98593 0.00000000010425171837
16300 13738.95009 5.39895 2.71883 1.98577 0.00000000010156675501
16400 13820.19120 5.39480 2.71770 1.98506 0.00000000009499956377
16500 13916.56840 5.41328 2.72638 1.98552 0.00000000007869083163
16600 13998.27079 5.40944 2.72590 1.98446 0.00000000005857536678
16700 14088.44701 5.41997 2.73084 1.98473 0.00000000009075584728
16800 14175.02924 5.41877 2.73051 1.98452 0.00000000007444089789
16900 14256.09042 5.40242 2.72207 1.98467 0.00000000009042011584
17000 14344.12487 5.39798 2.71906 1.98524 0.00000000006782663320
17100 14421.95067 5.38270 2.71181 1.98491 0.00000000007030021010
17200 14504.13368 5.37238 2.70601 1.98535 0.00000000007478639930
17300 14594.78830 5.38779 2.71232 1.98642 0.00000000004991207447
17400 14693.05102 5.42877 2.73197 1.98713 0.00000000000204281037
17500 14781.92582 5.42038 2.72741 1.98737 -0.00000000001134381478
17600 14867.07010 5.40668 2.72058 1.98733 -0.00000000000926192456
17700 14956.17402 5.39928 2.71668 1.98746 0.00000000001191580168
17800 15042.38882 5.40309 2.71842 1.98758 0.00000000002754152462
17900 15120.45067 5.38598 2.71078 1.98687 0.00000000001635047653
18000 15214.66412 5.38811 2.71115 1.98739 -0.00000000001907807246
18100 15303.00830 5.39124 2.71195 1.98796 -0.00000000004633715633
18200 15381.41420 5.38067 2.70752 1.98731 0.00000000000856203997
18300 15465.67619 5.37629 2.70492 1.98760 0.00000000003606093202
18400 15548.73826 5.36352 2.69833 1.98772 0.00000000001791455873
18500 15641.06194 5.38378 2.70762 1.98838 0.00000000002936140220
18600 15734.46168 5.41959 2.72386 1.98968 0.00000000004263434050
18700 15809.63852 5.40256 2.71573 1.98936 0.00000000008274980701
18800 15899.17710 5.39830 2.71199 1.99053 0.00000000007249756351
18900 15972.03369 5.38031 2.70267 1.99074 0.00000000007322142892
19000 16058.35393 5.38693 2.70600 1.99074 0.00000000010769074521
19100 16139.67039 5.37545 2.70038 1.99063 0.00000000014149659222
19200 16238.29174 5.41983 2.72118 1.99172 0.00000000011607603767
19300 16321.21965 5.41325 2.71818 1.99150 0.00000000011212719642
19400 16406.31981 5.41267 2.71557 1.99320 0.00000000012686740547
19500 16502.43235 5.43983 2.72929 1.99313 0.00000000012388046144
19600 16585.91230 5.42863 2.72300 1.99362 0.00000000012368239766
19700 16668.18723 5.41496 2.71568 1.99396 0.00000000010470557754
19800 16738.22791 5.39857 2.70886 1.99293 0.00000000010654854776
19900 16831.23061 5.39266 2.70632 1.99261 0.00000000010590639477
20000 16911.29249 5.38498 2.70154 1.99330 0.00000000012072831623
20100 16992.05145 5.37000 2.69452 1.99294 0.00000000011574385894
20200 17079.17701 5.36704 2.69191 1.99376 0.00000000010460077249
20300 17155.60281 5.35222 2.68517 1.99325 0.00000000010909140258
20400 17232.93661 5.33827 2.67747 1.99377 0.00000000010083489599
20500 17315.65201 5.33441 2.67602 1.99341 0.00000000008707967680
20600 17412.11660 5.33872 2.67813 1.99345 0.00000000006013767262
20700 17488.75533 5.33807 2.67628 1.99459 0.00000000007649081368
20800 17581.71757 5.36262 2.68809 1.99495 0.00000000006290701293
20900 17673.72358 5.36543 2.68908 1.99526 0.00000000004598543768
21000 17752.20311 5.35091 2.68203 1.99510 0.00000000007898215415
21100 17841.87569 5.35693 2.68400 1.99588 0.00000000005566036521
21200 17929.25988 5.35283 2.68300 1.99509 0.00000000004742783943
21300 18023.12231 5.35387 2.68368 1.99498 0.00000000001742517242
21400 18104.58873 5.34194 2.67836 1.99449 0.00000000001136069017
21500 18193.57741 5.34058 2.67839 1.99395 0.00000000001905586799
21600 18276.44008 5.33052 2.67331 1.99398 0.00000000005385203394
21700 18355.40137 5.31804 2.66645 1.99442 0.00000000002166000712
21800 18447.40649 5.32745 2.67102 1.99454 0.00000000003296829476
21900 18541.16493 5.32602 2.66923 1.99534 0.00000000004574829404
22000 18627.01261 5.32460 2.66861 1.99527 0.00000000004902211970
22100 18701.68028 5.31406 2.66384 1.99489 0.00000000005069367148
22200 18798.10255 5.33638 2.67439 1.99536 0.00000000007408296199
22300 18885.82702 5.33382 2.67290 1.99552 0.00000000005341060927
22400 18977.04593 5.34058 2.67609 1.99567 0.00000000006918376982
22500 19057.28486 5.34053 2.67639 1.99542 0.00000000009352163488
22600 19131.37895 5.32776 2.67038 1.99513 0.00000000009933032175
22700 19210.42552 5.32096 2.66718 1.99498 0.00000000013264944698
22800 19290.91235 5.31034 2.66206 1.99482 0.00000000013289813694
22900 19386.11439 5.31606 2.66396 1.99555 0.00000000013518075548
23000 19469.21373 5.31372 2.66259 1.99570 0.00000000014992984632
23100 19543.54656 5.30274 2.65793 1.99506 0.00000000014327827813
23200 19626.96827 5.30166 2.65713 1.99526 0.00000000013683809641
23300 19709.72758 5.29719 2.65492 1.99524 0.00000000010614442658
23400 19790.10085 5.28940 2.65093 1.99530 0.00000000016176038287
23500 19873.62920 5.27776 2.64597 1.99464 0.00000000021022827923
23600 19973.49101 5.31994 2.66528 1.99602 0.00000000023274271399
23700 20061.74553 5.33969 2.67453 1.99650 0.00000000018323031981
23800 20151.85918 5.34185 2.67576 1.99639 0.00000000019252333061
23900 20228.36370 5.33375 2.67264 1.99569 0.00000000020934365352
24000 20304.34781 5.32190 2.66767 1.99496 0.00000000021486457058
24100 20394.28645 5.32033 2.66686 1.99498 0.00000000021570922826
24200 20482.34306 5.33829 2.67600 1.99488 0.00000000019829116127
24300 20569.72212 5.34503 2.67985 1.99453 0.00000000024190516257
24400 20662.37574 5.37304 2.69248 1.99557 0.00000000026251267826
24500 20757.38988 5.39000 2.69913 1.99694 0.00000000026157565003
24600 20847.58043 5.40776 2.70823 1.99679 0.00000000027218760579
24700 20936.26980 5.40815 2.70819 1.99696 0.00000000027686652970
24800 21034.13288 5.43384 2.72120 1.99685 0.00000000028169644395
24900 21112.30980 5.42141 2.71583 1.99622 0.00000000030178615162
25000 21196.69005 5.41321 2.71078 1.99692 0.00000000033442404401
25100 21272.59859 5.40156 2.70579 1.99629 0.00000000031303581949
25200 21371.55500 5.41299 2.70961 1.99770 0.00000000030939517615
25300 21461.24413 5.42362 2.71578 1.99708 0.00000000029302427151
25400 21560.34287 5.43449 2.71933 1.99846 0.00000000027784796686
25500 21660.50550 5.49961 2.75158 1.99871 0.00000000025006752224
25600 21755.73279 5.50528 2.75361 1.99930 0.00000000023603963228
25700 21835.77884 5.49422 2.74839 1.99907 0.00000000021510881965
25800 21933.37397 5.50862 2.75484 1.99961 0.00000000023040769292
25900 22033.86473 5.56801 2.78288 2.00081 0.00000000026138113896
26000 22130.92404 5.62938 2.81334 2.00096 0.00000000023272228589
26100 22214.07708 5.62034 2.80910 2.00077 0.00000000023750157396
26200 22287.97727 5.60882 2.80457 1.99989 0.00000000021932411443
26300 22377.74989 5.60876 2.80475 1.99973 0.00000000021379342741
26400 22470.70231 5.61027 2.80455 2.00042 0.00000000020400214851
26500 22551.88729 5.60603 2.80286 2.00011 0.00000000024398971732
26600 22639.86315 5.60337 2.80148 2.00015 0.00000000025350832544
26700 22730.29484 5.61815 2.80760 2.00105 0.00000000029467273066
26800 22827.81031 5.62261 2.80931 2.00142 0.00000000028315927381
26900 22917.16906 5.61620 2.80565 2.00175 0.00000000027304025707
27000 22997.45066 5.60492 2.80054 2.00137 0.00000000026296387290
27100 23083.22976 5.60364 2.79986 2.00140 0.00000000029499247489
27200 23165.14441 5.59211 2.79467 2.00099 0.00000000029699709359
27300 23247.00116 5.58147 2.78992 2.00059 0.00000000029612934327
27400 23329.15885 5.57392 2.78609 2.00062 0.00000000028280311426
27500 23405.14946 5.56371 2.78125 2.00044 0.00000000027251711998
27600 23494.77717 5.56461 2.78205 2.00018 0.00000000026679991549
27700 23572.12050 5.55731 2.77885 1.99986 0.00000000026140778431
27800 23662.95279 5.55706 2.77888 1.99975 0.00000000024889512673
27900 23755.64014 5.55728 2.77844 2.00014 0.00000000026610091908
28000 23842.24144 5.55098 2.77549 2.00000 0.00000000031080915619
28100 23939.44797 5.55356 2.77609 2.00050 0.00000000030074431834
28200 24032.63789 5.56158 2.77956 2.00089 0.00000000032524027915
28300 24123.13606 5.55648 2.77633 2.00138 0.00000000031761970831
28400 24192.20334 5.54475 2.77154 2.00060 0.00000000032943248129
28500 24274.00105 5.53538 2.76778 1.99993 0.00000000030482638635
28600 24357.78491 5.53605 2.76817 1.99990 0.00000000032178792964
28700 24453.13319 5.54063 2.77017 2.00010 0.00000000034278979655
28800 24539.27925 5.53657 2.76886 1.99958 0.00000000038447289796
28900 24628.45986 5.53441 2.76787 1.99952 0.00000000038642422595
29000 24697.37736 5.52192 2.76253 1.99886 0.00000000033748914774
29100 24768.58893 5.51325 2.75933 1.99804 0.00000000031016522684
29200 24852.19522 5.51041 2.75686 1.99880 0.00000000026714186419
29300 24935.87101 5.50340 2.75311 1.99898 0.00000000033177816050
29400 25023.64367 5.49898 2.75043 1.99932 0.00000000028459457013
29500 25096.54753 5.48717 2.74563 1.99851 0.00000000025975666063
29600 25171.78812 5.47977 2.74215 1.99834 0.00000000024017321465
29700 25255.85949 5.47112 2.73823 1.99805 0.00000000024157920109
29800 25338.57839 5.46135 2.73306 1.99826 0.00000000024307222901
29900 25420.41281 5.45311 2.72966 1.99773 0.00000000028894309168
30000 25510.20728 5.45785 2.73175 1.99793 0.00000000028150104470
30100 25590.64743 5.44840 2.72773 1.99741 0.00000000023778934377
30200 25666.24666 5.43894 2.72385 1.99679 0.00000000023558222040
30300 25746.34776 5.43377 2.72137 1.99670 0.00000000023103563507
30400 25831.07649 5.42734 2.71832 1.99658 0.00000000026432722677
30500 25932.24300 5.44982 2.72880 1.99715 0.00000000024179946934
30600 26022.03290 5.45454 2.73164 1.99680 0.00000000024312374336
30700 26101.96157 5.44571 2.72730 1.99674 0.00000000025071589249
